ScanningMode	2Theta
ScanningType	Continuos Scanning
X-Ray	40kV/40mA
DivSlit	3.0mm
DivH.L.Slit	10mm
SctSlit	open
RecSlit	open
Start	114
Stop	119
Step	0.01
114	83053
114.01	82562
114.02	82323
114.03	82870
114.04	83134
114.05	83118
114.06	82322
114.07	82534
114.08	83037
114.09	82692
114.1	83001
114.11	82857
114.12	83146
114.13	82806
114.14	83115
114.15	83105
114.16	82630
114.17	82635
114.18	82781
114.19	82639
114.2	82756
114.21	82538
114.22	83036
114.23	82972
114.24	83254
114.25	83035
114.26	82820
114.27	82753
114.28	83598
114.29	82901
114.3	82814
114.31	83210
114.32	83203
114.33	83012
114.34	83410
114.35	83188
114.36	82910
114.37	83416
114.38	82459
114.39	83342
114.4	82991
114.41	83058
114.42	82901
114.43	83077
114.44	82973
114.45	83205
114.46	82910
114.47	83442
114.48	82960
114.49	83011
114.5	83256
114.51	83268
114.52	82765
114.53	82642
114.54	82848
114.55	83165
114.56	83285
114.57	83309
114.58	83237
114.59	82887
114.6	82287
114.61	83189
114.62	83977
114.63	83020
114.64	82897
114.65	82989
114.66	82749
114.67	82701
114.68	83024
114.69	82938
114.7	83168
114.71	83075
114.72	83417
114.73	83306
114.74	83187
114.75	82948
114.76	83336
114.77	83078
114.78	83169
114.79	83183
114.8	82796
114.81	82829
114.82	82511
114.83	82951
114.84	83271
114.85	83210
114.86	83341
114.87	83136
114.88	82790
114.89	83607
114.9	82983
114.91	83315
114.92	83232
114.93	82985
114.94	83029
114.95	83297
114.96	83030
114.97	83237
114.98	82772
114.99	83388
115	83152
115.01	82941
115.02	83151
115.03	83256
115.04	83887
115.05	83656
115.06	83475
115.07	82567
115.08	83291
115.09	83571
115.1	83434
115.11	83560
115.12	83706
115.13	83398
115.14	83151
115.15	83965
115.16	83704
115.17	83161
115.18	83280
115.19	83476
115.2	83646
115.21	83475
115.22	83235
115.23	83675
115.24	83999
115.25	83479
115.26	83975
115.27	83674
115.28	84268
115.29	84149
115.3	83975
115.31	84248
115.32	83856
115.33	83660
115.34	84017
115.35	83667
115.36	83394
115.37	84198
115.38	84019
115.39	83997
115.4	84069
115.41	84620
115.42	84312
115.43	84216
115.44	84387
115.45	84625
115.46	83904
115.47	84223
115.48	83967
115.49	84525
115.5	84843
115.51	84495
115.52	84519
115.53	84695
115.54	84217
115.55	85022
115.56	85175
115.57	85270
115.58	84596
115.59	85190
115.6	84707
115.61	85293
115.62	85166
115.63	84913
115.64	85102
115.65	85471
115.66	85449
115.67	85645
115.68	85718
115.69	85744
115.7	85669
115.71	85387
115.72	85667
115.73	86132
115.74	86156
115.75	86350
115.76	86096
115.77	86530
115.78	85847
115.79	86117
115.8	86020
115.81	86065
115.82	86761
115.83	86918
115.84	86917
115.85	86344
115.86	86429
115.87	86961
115.88	86878
115.89	87383
115.9	87762
115.91	87282
115.92	87466
115.93	87324
115.94	87874
115.95	87064
115.96	87559
115.97	87673
115.98	87812
115.99	88072
116	88066
116.01	87928
116.02	87810
116.03	88154
116.04	87815
116.05	88101
116.06	87648
116.07	88540
116.08	88535
116.09	88314
116.1	88572
116.11	88366
116.12	88630
116.13	88730
116.14	89149
116.15	88720
116.16	89195
116.17	88876
116.18	88853
116.19	88847
116.2	89136
116.21	88731
116.22	87982
116.23	89116
116.24	88787
116.25	88947
116.26	88733
116.27	88976
116.28	89153
116.29	89468
116.3	88883
116.31	88738
116.32	89522
116.33	89438
116.34	88795
116.35	88807
116.36	89161
116.37	88549
116.38	89508
116.39	89072
116.4	88910
116.41	88591
116.42	88649
116.43	88548
116.44	88231
116.45	88723
116.46	88370
116.47	88731
116.48	88237
116.49	88591
116.5	88125
116.51	88392
116.52	88690
116.53	88873
116.54	88210
116.55	87992
116.56	88169
116.57	88773
116.58	87863
116.59	88105
116.6	87623
116.61	88352
116.62	87756
116.63	87736
116.64	87451
116.65	87695
116.66	87780
116.67	87471
116.68	86970
116.69	87110
116.7	87238
116.71	88463
116.72	86973
116.73	87033
116.74	86363
116.75	86959
116.76	86906
116.77	86779
116.78	86438
116.79	86420
116.8	86582
116.81	86020
116.82	86664
116.83	86206
116.84	86315
116.85	85994
116.86	85593
116.87	85843
116.88	86234
116.89	85856
116.9	85341
116.91	86200
116.92	85217
116.93	85320
116.94	85847
116.95	85776
116.96	85689
116.97	85200
116.98	85450
116.99	85370
117	85210
117.01	84967
117.02	85510
117.03	85220
117.04	85171
117.05	85330
117.06	85117
117.07	84687
117.08	85056
117.09	84832
117.1	85187
117.11	84650
117.12	84839
117.13	85320
117.14	84488
117.15	84429
117.16	85096
117.17	83920
117.18	84267
117.19	84424
117.2	83941
117.21	84653
117.22	83984
117.23	84348
117.24	84391
117.25	84364
117.26	84326
117.27	83635
117.28	84398
117.29	83869
117.3	83976
117.31	83623
117.32	84181
117.33	83476
117.34	84470
117.35	83801
117.36	84237
117.37	84159
117.38	84007
117.39	83874
117.4	84180
117.41	83848
117.42	83755
117.43	84129
117.44	84322
117.45	84165
117.46	83852
117.47	83960
117.48	83756
117.49	84227
117.5	83397
117.51	84046
117.52	84024
117.53	84232
117.54	83562
117.55	83975
117.56	83831
117.57	83808
117.58	83763
117.59	84118
117.6	83883
117.61	83704
117.62	83692
117.63	83929
117.64	83751
117.65	83806
117.66	83421
117.67	83695
117.68	83788
117.69	83316
117.7	83946
117.71	83106
117.72	83743
117.73	83654
117.74	83799
117.75	84100
117.76	84085
117.77	83892
117.78	84026
117.79	83793
117.8	83430
117.81	83608
117.82	83799
117.83	83764
117.84	84011
117.85	83656
117.86	84009
117.87	83602
117.88	83948
117.89	83510
117.9	84062
117.91	83662
117.92	83488
117.93	84212
117.94	83358
117.95	83936
117.96	83994
117.97	84071
117.98	83549
117.99	83365
118	83548
118.01	82964
118.02	83932
118.03	83576
118.04	83778
118.05	83233
118.06	83224
118.07	83875
118.08	83358
118.09	84008
118.1	84272
118.11	83663
118.12	83636
118.13	83665
118.14	83901
118.15	83375
118.16	83216
118.17	84165
118.18	83668
118.19	83295
118.2	83829
118.21	83510
118.22	83815
118.23	83760
118.24	83904
118.25	83686
118.26	83319
118.27	83839
118.28	83160
118.29	83657
118.3	83820
118.31	83397
118.32	84279
118.33	83496
118.34	83429
118.35	83796
118.36	83285
118.37	83275
118.38	83660
118.39	83558
118.4	83980
118.41	84024
118.42	83841
118.43	84147
118.44	83468
118.45	83483
118.46	83780
118.47	83792
118.48	83873
118.49	83517
118.5	83216
118.51	83620
118.52	83770
118.53	83662
118.54	83691
118.55	83887
118.56	83470
118.57	83583
118.58	83702
118.59	83961
118.6	84183
118.61	83820
118.62	83437
118.63	83467
118.64	83805
118.65	83555
118.66	83720
118.67	83542
118.68	84016
118.69	83541
118.7	83847
118.71	83909
118.72	83811
118.73	83939
118.74	83742
118.75	83440
118.76	83545
118.77	83373
118.78	83657
118.79	83885
118.8	83755
118.81	83733
118.82	83561
118.83	83793
118.84	84275
118.85	83581
118.86	84218
118.87	83534
118.88	84108
118.89	83899
118.9	83556
118.91	83970
118.92	83453
118.93	83537
118.94	83210
118.95	83706
118.96	84028
118.97	83476
118.98	83997
118.99	83597
119	83414
X-Ray	40kV/40mA
DivSlit	3.0mm
DivH.L.Slit	10mm
SctSlit	open
RecSlit	open
Start	114
Stop	119
Step	0.01
114	79710
114.01	79546
114.02	80012
114.03	79545
114.04	79916
114.05	79789
114.06	79749
114.07	80002
114.08	79638
114.09	79957
114.1	79464
114.11	79613
114.12	79591
114.13	80046
114.14	79808
114.15	79560
114.16	79793
114.17	80161
114.18	80006
114.19	79809
114.2	79233
114.21	80059
114.22	79424
114.23	80026
114.24	80091
114.25	80040
114.26	80089
114.27	80149
114.28	79688
114.29	80143
114.3	80127
114.31	80284
114.32	79443
114.33	80151
114.34	80033
114.35	79717
114.36	80547
114.37	80061
114.38	79841
114.39	79888
114.4	80274
114.41	80334
114.42	79584
114.43	80054
114.44	80025
114.45	80285
114.46	79996
114.47	80206
114.48	80643
114.49	79777
114.5	80340
114.51	79914
114.52	79932
114.53	79774
114.54	79927
114.55	80356
114.56	80198
114.57	79201
114.58	80045
114.59	80011
114.6	80118
114.61	79881
114.62	80169
114.63	80165
114.64	79861
114.65	80279
114.66	80012
114.67	79965
114.68	80064
114.69	80410
114.7	80600
114.71	80367
114.72	80275
114.73	79965
114.74	79725
114.75	80061
114.76	80309
114.77	79928
114.78	80043
114.79	80513
114.8	80028
114.81	79759
114.82	80528
114.83	79641
114.84	80276
114.85	80176
114.86	80211
114.87	80618
114.88	80191
114.89	80987
114.9	80190
114.91	80604
114.92	80311
114.93	80188
114.94	80678
114.95	80879
114.96	80382
114.97	80820
114.98	80342
114.99	80780
115	80902
115.01	80810
115.02	80667
115.03	80695
115.04	80195
115.05	80470
115.06	80468
115.07	80302
115.08	80618
115.09	79605
115.1	81156
115.11	80737
115.12	79941
115.13	80551
115.14	80330
115.15	80965
115.16	80632
115.17	80807
115.18	80683
115.19	80367
115.2	80896
115.21	80809
115.22	80778
115.23	80872
115.24	81431
115.25	80939
115.26	80693
115.27	80768
115.28	81084
115.29	81195
115.3	80887
115.31	80654
115.32	81204
115.33	81060
115.34	81139
115.35	81218
115.36	81290
115.37	81500
115.38	80952
115.39	80909
115.4	80279
115.41	81466
115.42	80890
115.43	81053
115.44	81487
115.45	81173
115.46	81416
115.47	81492
115.48	81620
115.49	80810
115.5	81312
115.51	81293
115.52	81876
115.53	81716
115.54	81484
115.55	81287
115.56	81919
115.57	81666
115.58	81651
115.59	81546
115.6	81635
115.61	82417
115.62	81566
115.63	82229
115.64	82260
115.65	81520
115.66	82205
115.67	82331
115.68	82320
115.69	82614
115.7	82579
115.71	82494
115.72	82651
115.73	82917
115.74	82731
115.75	83237
115.76	83211
115.77	82858
115.78	82653
115.79	83330
115.8	83233
115.81	83126
115.82	83557
115.83	83664
115.84	83316
115.85	83494
115.86	83930
115.87	83706
115.88	83198
115.89	83328
115.9	84356
115.91	84411
115.92	84593
115.93	84197
115.94	84298
115.95	84880
115.96	84307
115.97	84232
115.98	84426
115.99	84565
116	85072
116.01	84853
116.02	85060
116.03	85350
116.04	84835
116.05	84659
116.06	84881
116.07	85790
116.08	85465
116.09	85071
116.1	85029
116.11	85786
116.12	85504
116.13	85096
116.14	85159
116.15	85603
116.16	85511
116.17	85624
116.18	85659
116.19	85725
116.2	85757
116.21	85700
116.22	85629
116.23	85824
116.24	85854
116.25	86562
116.26	86041
116.27	85449
116.28	85896
116.29	85925
116.3	85750
116.31	85913
116.32	85682
116.33	85889
116.34	86272
116.35	85988
116.36	85880
116.37	85557
116.38	85689
116.39	86136
116.4	85070
116.41	85643
116.42	84834
116.43	85591
116.44	85414
116.45	85793
116.46	85490
116.47	85290
116.48	85764
116.49	85285
116.5	85146
116.51	84925
116.52	84756
116.53	85108
116.54	84888
116.55	85363
116.56	84528
116.57	84818
116.58	85078
116.59	84835
116.6	84674
116.61	84494
116.62	84612
116.63	84681
116.64	84420
116.65	84571
116.66	84121
116.67	83694
116.68	84565
116.69	83772
116.7	83586
116.71	83556
116.72	84413
116.73	83914
116.74	84299
116.75	83514
116.76	84023
116.77	84053
116.78	83868
116.79	83523
116.8	83654
116.81	83482
116.82	83012
116.83	83392
116.84	83273
116.85	82386
116.86	82744
116.87	82723
116.88	82964
116.89	82170
116.9	82845
116.91	83045
116.92	83129
116.93	83119
116.94	82726
116.95	82879
116.96	83025
116.97	82849
116.98	82755
116.99	81826
117	82629
117.01	82534
117.02	82554
117.03	82258
117.04	82225
117.05	81793
117.06	82001
117.07	81594
117.08	82175
117.09	82042
117.1	82135
117.11	81666
117.12	82218
117.13	82063
117.14	81620
117.15	81765
117.16	81732
117.17	81081
117.18	81808
117.19	81887
117.2	82018
117.21	81779
117.22	81530
117.23	81631
117.24	81591
117.25	81369
117.26	81762
117.27	81175
117.28	81263
117.29	81206
117.3	81575
117.31	81722
117.32	81396
117.33	81614
117.34	80939
117.35	81305
117.36	81012
117.37	80942
117.38	80673
117.39	81060
117.4	81453
117.41	80855
117.42	81083
117.43	81294
117.44	80907
117.45	80604
117.46	81112
117.47	81226
117.48	80766
117.49	80976
117.5	80772
117.51	80916
117.52	81126
117.53	81250
117.54	81400
117.55	80855
117.56	81233
117.57	80538
117.58	80692
117.59	80486
117.6	80769
117.61	80605
117.62	80719
117.63	80615
117.64	80802
117.65	81233
117.66	80883
117.67	80776
117.68	80925
117.69	81075
117.7	80613
117.71	80701
117.72	80871
117.73	81002
117.74	81207
117.75	81173
117.76	81007
117.77	80634
117.78	80701
117.79	80950
117.8	80755
117.81	80647
117.82	81384
117.83	80387
117.84	80867
117.85	81110
117.86	80492
117.87	80360
117.88	80992
117.89	80774
117.9	80744
117.91	80885
117.92	80919
117.93	80755
117.94	81166
117.95	80636
117.96	80970
117.97	80714
117.98	80606
117.99	80922
118	80370
118.01	80701
118.02	81123
118.03	80785
118.04	80458
118.05	80570
118.06	81171
118.07	81106
118.08	81012
118.09	80977
118.1	81288
118.11	81223
118.12	80641
118.13	81113
118.14	80676
118.15	81560
118.16	81362
118.17	81084
118.18	80742
118.19	80468
118.2	80673
118.21	80419
118.22	81248
118.23	80877
118.24	81357
118.25	81108
118.26	81208
118.27	80998
118.28	81354
118.29	80656
118.3	81148
118.31	81476
118.32	80657
118.33	80775
118.34	81088
118.35	81049
118.36	80596
118.37	80790
118.38	81457
118.39	81160
118.4	81033
118.41	80714
118.42	81118
118.43	80850
118.44	80921
118.45	80995
118.46	80594
118.47	81354
118.48	81036
118.49	80790
118.5	81012
118.51	80972
118.52	81000
118.53	81258
118.54	81034
118.55	81425
118.56	80775
118.57	80827
118.58	80653
118.59	81030
118.6	80882
118.61	81343
118.62	80872
118.63	80699
118.64	80969
118.65	81046
118.66	81418
118.67	81367
118.68	80812
118.69	81096
118.7	80982
118.71	80852
118.72	81380
118.73	81209
118.74	81431
118.75	81174
118.76	80920
118.77	81205
118.78	81102
118.79	81068
118.8	81040
118.81	81289
118.82	81305
118.83	80524
118.84	81475
118.85	80852
118.86	81820
118.87	80964
118.88	80802
118.89	81051
118.9	81276
118.91	81402
118.92	80714
118.93	81243
118.94	81785
118.95	81050
118.96	81154
118.97	80954
118.98	80690
118.99	80880
119	80694
X-Ray	40kV/40mA
DivSlit	3.0mm
DivH.L.Slit	10mm
SctSlit	open
RecSlit	open
Start	114
Stop	119
Step	0.01
114	78998
114.01	78605
114.02	78749
114.03	78787
114.04	78791
114.05	78962
114.06	79126
114.07	78964
114.08	79013
114.09	78597
114.1	79006
114.11	78976
114.12	79200
114.13	78640
114.14	79393
114.15	78146
114.16	78796
114.17	78939
114.18	79187
114.19	79541
114.2	78939
114.21	78555
114.22	79270
114.23	78790
114.24	78952
114.25	78986
114.26	79021
114.27	79516
114.28	79483
114.29	79225
114.3	78919
114.31	78727
114.32	78983
114.33	78373
114.34	79084
114.35	79226
114.36	78922
114.37	79183
114.38	79040
114.39	79287
114.4	78794
114.41	78887
114.42	78975
114.43	78987
114.44	78995
114.45	78741
114.46	79022
114.47	78671
114.48	79159
114.49	79017
114.5	79020
114.51	78822
114.52	79650
114.53	78909
114.54	78898
114.55	78638
114.56	78924
114.57	79221
114.58	78954
114.59	78869
114.6	78604
114.61	78953
114.62	79438
114.63	78857
114.64	79156
114.65	79638
114.66	79288
114.67	79335
114.68	79032
114.69	79155
114.7	79506
114.71	78787
114.72	79157
114.73	78893
114.74	79147
114.75	78858
114.76	79109
114.77	79066
114.78	79587
114.79	79267
114.8	79389
114.81	79068
114.82	78727
114.83	79120
114.84	79659
114.85	79509
114.86	79227
114.87	79506
114.88	79071
114.89	78954
114.9	79307
114.91	79068
114.92	79452
114.93	79340
114.94	79531
114.95	79390
114.96	79260
114.97	79672
114.98	79288
114.99	79092
115	79370
115.01	79920
115.02	79719
115.03	79298
115.04	79662
115.05	79564
115.06	79685
115.07	79425
115.08	79437
115.09	79937
115.1	79348
115.11	79487
115.12	79559
115.13	79569
115.14	79700
115.15	79793
115.16	79587
115.17	79496
115.18	79446
115.19	79549
115.2	79563
115.21	79903
115.22	79805
115.23	80234
115.24	79670
115.25	79831
115.26	79708
115.27	79890
115.28	79673
115.29	79682
115.3	80041
115.31	80369
115.32	79895
115.33	80109
115.34	79975
115.35	79811
115.36	79615
115.37	80221
115.38	79893
115.39	80518
115.4	80023
115.41	80335
115.42	79794
115.43	80372
115.44	80567
115.45	80519
115.46	80555
115.47	80357
115.48	80161
115.49	80132
115.5	80002
115.51	80311
115.52	80301
115.53	80675
115.54	80359
115.55	80294
115.56	80554
115.57	80674
115.58	80632
115.59	80440
115.6	80691
115.61	80429
115.62	81047
115.63	80654
115.64	81293
115.65	81016
115.66	81192
115.67	81323
115.68	81191
115.69	81625
115.7	81971
115.71	81217
115.72	81641
115.73	81802
115.74	81860
115.75	81770
115.76	82078
115.77	81928
115.78	81865
115.79	82245
115.8	82515
115.81	82339
115.82	82990
115.83	82211
115.84	82197
115.85	82430
115.86	82643
115.87	82808
115.88	82869
115.89	82745
115.9	83198
115.91	83017
115.92	83214
115.93	83090
115.94	83333
115.95	83843
115.96	83521
115.97	83719
115.98	83422
115.99	83864
116	84056
116.01	83683
116.02	83683
116.03	83975
116.04	84417
116.05	83994
116.06	84238
116.07	84080
116.08	83571
116.09	84166
116.1	84436
116.11	84210
116.12	84963
116.13	84150
116.14	83931
116.15	84398
116.16	84726
116.17	84582
116.18	84623
116.19	84514
116.2	84455
116.21	84655
116.22	84614
116.23	84752
116.24	84399
116.25	84683
116.26	84885
116.27	84525
116.28	84796
116.29	84791
116.3	85040
116.31	84289
116.32	84932
116.33	84199
116.34	84349
116.35	84898
116.36	84356
116.37	84452
116.38	84498
116.39	85173
116.4	84933
116.41	84547
116.42	84177
116.43	84845
116.44	84798
116.45	84588
116.46	83859
116.47	84838
116.48	83801
116.49	83935
116.5	84575
116.51	83743
116.52	83970
116.53	84318
116.54	84056
116.55	84208
116.56	84172
116.57	83087
116.58	83674
116.59	83659
116.6	84016
116.61	83446
116.62	83643
116.63	83364
116.64	83306
116.65	83513
116.66	83018
116.67	83681
116.68	83793
116.69	83417
116.7	83238
116.71	82819
116.72	82853
116.73	82802
116.74	82963
116.75	82461
116.76	83168
116.77	82537
116.78	82488
116.79	82635
116.8	82088
116.81	82185
116.82	81930
116.83	81873
116.84	82343
116.85	82169
116.86	82051
116.87	81776
116.88	82293
116.89	82062
116.9	81407
116.91	81409
116.92	81758
116.93	81545
116.94	81329
116.95	82107
116.96	81691
116.97	81659
116.98	81118
116.99	81457
117	81148
117.01	81057
117.02	81795
117.03	81489
117.04	81197
117.05	80647
117.06	81347
117.07	81062
117.08	81161
117.09	81116
117.1	81195
117.11	80909
117.12	81025
117.13	80858
117.14	80848
117.15	80247
117.16	80408
117.17	80661
117.18	80275
117.19	80394
117.2	80758
117.21	80522
117.22	80550
117.23	80426
117.24	80502
117.25	80175
117.26	80557
117.27	80127
117.28	80598
117.29	80228
117.3	80876
117.31	80051
117.32	80084
117.33	80460
117.34	79898
117.35	79741
117.36	80084
117.37	80639
117.38	80350
117.39	79959
117.4	79860
117.41	80155
117.42	80109
117.43	80399
117.44	80031
117.45	79562
117.46	79945
117.47	79997
117.48	79809
117.49	79789
117.5	80185
117.51	80082
117.52	80114
117.53	80073
117.54	79901
117.55	80335
117.56	80129
117.57	80273
117.58	80522
117.59	79632
117.6	80338
117.61	80363
117.62	80368
117.63	79952
117.64	80412
117.65	79805
117.66	79717
117.67	79838
117.68	80061
117.69	79581
117.7	79984
117.71	80410
117.72	80101
117.73	79825
117.74	79825
117.75	79623
117.76	79774
117.77	80198
117.78	79883
117.79	80417
117.8	80204
117.81	80118
117.82	79558
117.83	79667
117.84	80201
117.85	80430
117.86	80472
117.87	80073
117.88	79551
117.89	79951
117.9	79246
117.91	80264
117.92	80331
117.93	80187
117.94	79854
117.95	80351
117.96	79856
117.97	80098
117.98	80087
117.99	79793
118	80276
118.01	79963
118.02	80123
118.03	79740
118.04	80539
118.05	79782
118.06	80073
118.07	80300
118.08	79843
118.09	79958
118.1	80293
118.11	79878
118.12	79742
118.13	79681
118.14	80204
118.15	79912
118.16	79949
118.17	80186
118.18	79576
118.19	80477
118.2	79973
118.21	79906
118.22	80104
118.23	80187
118.24	80503
118.25	80682
118.26	80019
118.27	80163
118.28	80115
118.29	79958
118.3	79699
118.31	79859
118.32	79899
118.33	80544
118.34	80106
118.35	80162
118.36	80170
118.37	80117
118.38	80048
118.39	80184
118.4	80020
118.41	79695
118.42	79974
118.43	79649
118.44	80424
118.45	79827
118.46	80525
118.47	80476
118.48	80399
118.49	80441
118.5	79843
118.51	80311
118.52	80276
118.53	80272
118.54	80265
118.55	80291
118.56	79737
118.57	79703
118.58	80142
118.59	79831
118.6	80386
118.61	80058
118.62	80415
118.63	79806
118.64	80318
118.65	79998
118.66	80365
118.67	80038
118.68	80209
118.69	79738
118.7	80156
118.71	79980
118.72	80718
118.73	80321
118.74	80123
118.75	79891
118.76	80464
118.77	80336
118.78	79482
118.79	80552
118.8	80529
118.81	80016
118.82	80451
118.83	80326
118.84	80317
118.85	80084
118.86	80539
118.87	80376
118.88	80310
118.89	80214
118.9	80026
118.91	80159
118.92	80093
118.93	80433
118.94	80593
118.95	80364
118.96	80153
118.97	79710
118.98	80313
118.99	80694
119	80092
X-Ray	40kV/40mA
DivSlit	3.0mm
DivH.L.Slit	10mm
SctSlit	open
RecSlit	open
Start	114
Stop	119
Step	0.01
114	77522
114.01	77710
114.02	77469
114.03	77776
114.04	78024
114.05	77718
114.06	78762
114.07	78103
114.08	78441
114.09	77645
114.1	78022
114.11	77816
114.12	78360
114.13	78114
114.14	77765
114.15	78352
114.16	77629
114.17	77871
114.18	78421
114.19	78662
114.2	77795
114.21	78082
114.22	78026
114.23	78090
114.24	77811
114.25	78590
114.26	77778
114.27	77557
114.28	78139
114.29	77997
114.3	78008
114.31	77751
114.32	77973
114.33	78117
114.34	77614
114.35	77970
114.36	78312
114.37	77978
114.38	77819
114.39	78222
114.4	78195
114.41	78568
114.42	78571
114.43	78029
114.44	77774
114.45	78562
114.46	77815
114.47	78101
114.48	78175
114.49	77954
114.5	78090
114.51	77828
114.52	77978
114.53	78452
114.54	78125
114.55	78059
114.56	78068
114.57	78604
114.58	78621
114.59	77891
114.6	78117
114.61	78643
114.62	78019
114.63	78170
114.64	78594
114.65	78830
114.66	77693
114.67	78758
114.68	77874
114.69	77938
114.7	78522
114.71	78449
114.72	78422
114.73	78535
114.74	78204
114.75	78057
114.76	77872
114.77	78312
114.78	78220
114.79	78321
114.8	78189
114.81	78564
114.82	78393
114.83	78463
114.84	78331
114.85	78342
114.86	78376
114.87	78472
114.88	77794
114.89	78720
114.9	78174
114.91	78704
114.92	77921
114.93	78455
114.94	78143
114.95	78200
114.96	78978
114.97	78508
114.98	78247
114.99	78730
115	78373
115.01	78416
115.02	78538
115.03	78119
115.04	78855
115.05	78270
115.06	78528
115.07	78152
115.08	78433
115.09	78436
115.1	78198
115.11	78800
115.12	78132
115.13	78816
115.14	78712
115.15	78693
115.16	78272
115.17	78622
115.18	78375
115.19	78557
115.2	78614
115.21	78767
115.22	78651
115.23	78641
115.24	78533
115.25	78786
115.26	79027
115.27	78297
115.28	78768
115.29	78769
115.3	79300
115.31	78734
115.32	78565
115.33	79026
115.34	79068
115.35	78856
115.36	78882
115.37	79040
115.38	78833
115.39	78924
115.4	78569
115.41	78864
115.42	79010
115.43	78923
115.44	78948
115.45	79188
115.46	79263
115.47	78832
115.48	79349
115.49	79208
115.5	79416
115.51	79629
115.52	79678
115.53	79557
115.54	79433
115.55	79633
115.56	80100
115.57	80061
115.58	79860
115.59	79448
115.6	79722
115.61	79596
115.62	80369
115.63	79406
115.64	80200
115.65	79981
115.66	80670
115.67	80022
115.68	80637
115.69	80070
115.7	80220
115.71	80553
115.72	80414
115.73	80646
115.74	80724
115.75	80923
115.76	80740
115.77	80849
115.78	80714
115.79	80971
115.8	80668
115.81	80716
115.82	80757
115.83	81627
115.84	81678
115.85	81353
115.86	81989
115.87	81298
115.88	81727
115.89	81765
115.9	82217
115.91	81978
115.92	82129
115.93	82024
115.94	81948
115.95	82174
115.96	82054
115.97	82496
115.98	82468
115.99	82515
116	82873
116.01	82639
116.02	83058
116.03	82670
116.04	82762
116.05	82963
116.06	82649
116.07	83345
116.08	83781
116.09	83141
116.1	82919
116.11	82796
116.12	83154
116.13	83189
116.14	83130
116.15	83428
116.16	83183
116.17	83314
116.18	83420
116.19	83466
116.2	83575
116.21	82938
116.22	83544
116.23	83417
116.24	83422
116.25	83748
116.26	83443
116.27	83762
116.28	83487
116.29	83399
116.3	83529
116.31	83862
116.32	83008
116.33	83972
116.34	83312
116.35	83421
116.36	83486
116.37	82989
116.38	83851
116.39	83446
116.4	83672
116.41	83806
116.42	83084
116.43	83832
116.44	83597
116.45	83544
116.46	83609
116.47	83219
116.48	83416
116.49	83280
116.5	82995
116.51	83462
116.52	82414
116.53	82860
116.54	82678
116.55	82804
116.56	82196
116.57	82885
116.58	82624
116.59	82685
116.6	82097
116.61	82481
116.62	82950
116.63	82512
116.64	82494
116.65	82804
116.66	82325
116.67	82383
116.68	82565
116.69	81963
116.7	81859
116.71	82097
116.72	82063
116.73	81584
116.74	82193
116.75	81837
116.76	81498
116.77	81822
116.78	81632
116.79	81608
116.8	81490
116.81	81323
116.82	81653
116.83	81565
116.84	81465
116.85	80986
116.86	80606
116.87	81791
116.88	80444
116.89	80764
116.9	80792
116.91	81179
116.92	80565
116.93	80942
116.94	80346
116.95	80264
116.96	80645
116.97	80203
116.98	80656
116.99	80168
117	79558
117.01	80110
117.02	80601
117.03	80037
117.04	80003
117.05	80439
117.06	80084
117.07	80098
117.08	80530
117.09	79688
117.1	80001
117.11	80103
117.12	80201
117.13	79623
117.14	80168
117.15	79631
117.16	78956
117.17	79744
117.18	79956
117.19	79908
117.2	79441
117.21	79727
117.22	80077
117.23	79503
117.24	79685
117.25	79187
117.26	79708
117.27	79431
117.28	79193
117.29	79202
117.3	79411
117.31	79341
117.32	78748
117.33	79300
117.34	79101
117.35	79194
117.36	79036
117.37	79208
117.38	79106
117.39	79327
117.4	79335
117.41	78829
117.42	79196
117.43	78764
117.44	79446
117.45	79058
117.46	79417
117.47	79361
117.48	79126
117.49	79185
117.5	79628
117.51	79083
117.52	79313
117.53	79075
117.54	79065
117.55	79081
117.56	79655
117.57	78930
117.58	79136
117.59	79039
117.6	79180
117.61	78855
117.62	79571
117.63	79067
117.64	78520
117.65	79104
117.66	78586
117.67	79004
117.68	79400
117.69	79277
117.7	78908
117.71	79111
117.72	78890
117.73	79353
117.74	79259
117.75	79080
117.76	78892
117.77	79162
117.78	79132
117.79	78648
117.8	79475
117.81	79393
117.82	79321
117.83	78988
117.84	78675
117.85	79384
117.86	79484
117.87	78896
117.88	79350
117.89	78829
117.9	79022
117.91	79258
117.92	79657
117.93	79297
117.94	79396
117.95	79667
117.96	79028
117.97	78544
117.98	78956
117.99	79593
118	78741
118.01	78784
118.02	78805
118.03	80130
118.04	79121
118.05	79078
118.06	79052
118.07	79432
118.08	78852
118.09	79661
118.1	79306
118.11	78816
118.12	78922
118.13	79161
118.14	79492
118.15	78814
118.16	78800
118.17	79015
118.18	79029
118.19	79453
118.2	79051
118.21	79580
118.22	78760
118.23	79182
118.24	79467
118.25	79270
118.26	79169
118.27	79451
118.28	78912
118.29	79270
118.3	79219
118.31	79157
118.32	78966
118.33	79387
118.34	79034
118.35	79706
118.36	79165
118.37	78580
118.38	78563
118.39	78654
118.4	79715
118.41	79315
118.42	79333
118.43	79340
118.44	79451
118.45	79147
118.46	79034
118.47	79470
118.48	79127
118.49	78886
118.5	79442
118.51	79246
118.52	78981
118.53	78767
118.54	79100
118.55	79166
118.56	78876
118.57	79140
118.58	79053
118.59	79258
118.6	79054
118.61	79121
118.62	79150
118.63	79357
118.64	78942
118.65	79270
118.66	79248
118.67	79128
118.68	79566
118.69	79335
118.7	79357
118.71	79943
118.72	79121
118.73	78855
118.74	79620
118.75	78829
118.76	79421
118.77	79350
118.78	79465
118.79	78841
118.8	79161
118.81	78792
118.82	79309
118.83	80023
118.84	79507
118.85	79079
118.86	79016
118.87	79323
118.88	79754
118.89	79128
118.9	79252
118.91	79604
118.92	79203
118.93	79651
118.94	79812
118.95	79255
118.96	79212
118.97	79330
118.98	79226
118.99	79097
119	79665
X-Ray	40kV/40mA
DivSlit	3.0mm
DivH.L.Slit	10mm
SctSlit	open
RecSlit	open
Start	114
Stop	119
Step	0.01
114	76938
114.01	76873
114.02	76741
114.03	76897
114.04	76920
114.05	77009
114.06	77012
114.07	76810
114.08	77111
114.09	77306
114.1	76956
114.11	76814
114.12	77109
114.13	77008
114.14	76611
114.15	77149
114.16	76889
114.17	77209
114.18	77071
114.19	76753
114.2	77394
114.21	76796
114.22	76081
114.23	77117
114.24	77149
114.25	77155
114.26	76952
114.27	76903
114.28	76867
114.29	77093
114.3	76865
114.31	77231
114.32	77290
114.33	77086
114.34	77080
114.35	77229
114.36	77112
114.37	77243
114.38	77491
114.39	77109
114.4	76918
114.41	76754
114.42	77346
114.43	77267
114.44	77012
114.45	77652
114.46	77466
114.47	77305
114.48	77437
114.49	77136
114.5	77278
114.51	77150
114.52	77122
114.53	77109
114.54	76913
114.55	77003
114.56	76839
114.57	77093
114.58	77392
114.59	77196
114.6	77382
114.61	77322
114.62	76620
114.63	77480
114.64	77444
114.65	77337
114.66	77292
114.67	76838
114.68	77256
114.69	77147
114.7	77593
114.71	77349
114.72	77173
114.73	77179
114.74	77443
114.75	77220
114.76	77338
114.77	77849
114.78	77291
114.79	77357
114.8	77660
114.81	77706
114.82	77172
114.83	77848
114.84	77305
114.85	77166
114.86	77953
114.87	77794
114.88	76893
114.89	78060
114.9	77786
114.91	77498
114.92	77326
114.93	77474
114.94	77736
114.95	77616
114.96	77790
114.97	77734
114.98	78068
114.99	77347
115	77251
115.01	77249
115.02	77482
115.03	77975
115.04	77398
115.05	77650
115.06	77587
115.07	77681
115.08	77494
115.09	77755
115.1	77563
115.11	77821
115.12	77685
115.13	77856
115.14	77552
115.15	77758
115.16	77781
115.17	77649
115.18	78422
115.19	77811
115.2	77828
115.21	78089
115.22	78054
115.23	78016
115.24	78129
115.25	78206
115.26	77861
115.27	78007
115.28	78102
115.29	78013
115.3	77796
115.31	78084
115.32	77722
115.33	78004
115.34	77939
115.35	78265
115.36	78127
115.37	78090
115.38	78097
115.39	78751
115.4	77753
115.41	78345
115.42	78687
115.43	78227
115.44	78104
115.45	78491
115.46	78576
115.47	78310
115.48	78625
115.49	78719
115.5	78650
115.51	78219
115.52	79246
115.53	78541
115.54	79025
115.55	78237
115.56	78922
115.57	78944
115.58	78606
115.59	78870
115.6	79064
115.61	79015
115.62	79628
115.63	78756
115.64	78834
115.65	79618
115.66	79511
115.67	79455
115.68	79103
115.69	79877
115.7	79323
115.71	79816
115.72	79708
115.73	79857
115.74	79687
115.75	80279
115.76	79973
115.77	80300
115.78	79742
115.79	80432
115.8	79947
115.81	80255
115.82	80218
115.83	80689
115.84	80344
115.85	80697
115.86	80505
115.87	80714
115.88	80615
115.89	81194
115.9	80735
115.91	80611
115.92	81495
115.93	81091
115.94	81159
115.95	80856
115.96	81277
115.97	81420
115.98	81873
115.99	81704
116	81655
116.01	81781
116.02	82083
116.03	82058
116.04	81733
116.05	82358
116.06	82143
116.07	81714
116.08	81677
116.09	82325
116.1	81883
116.11	82295
116.12	82572
116.13	82468
116.14	82138
116.15	82501
116.16	82434
116.17	83063
116.18	82442
116.19	82812
116.2	82931
116.21	82395
116.22	82521
116.23	82405
116.24	82710
116.25	82904
116.26	82645
116.27	82791
116.28	82487
116.29	82625
116.3	82685
116.31	82573
116.32	82830
116.33	82988
116.34	82394
116.35	82772
116.36	82678
116.37	82556
116.38	82482
116.39	82782
116.4	82351
116.41	82485
116.42	82541
116.43	82537
116.44	82170
116.45	82406
116.46	82105
116.47	82324
116.48	82287
116.49	82519
116.5	82163
116.51	82088
116.52	82265
116.53	82253
116.54	81961
116.55	82092
116.56	82089
116.57	81880
116.58	81876
116.59	81507
116.6	81791
116.61	81798
116.62	81515
116.63	81462
116.64	82156
116.65	81152
116.66	81775
116.67	81527
116.68	81068
116.69	80825
116.7	81765
116.71	81632
116.72	80653
116.73	80747
116.74	80570
116.75	80597
116.76	80286
116.77	80880
116.78	80908
116.79	80237
116.8	80324
116.81	80705
116.82	80830
116.83	80032
116.84	80623
116.85	80102
116.86	79971
116.87	80174
116.88	79965
116.89	79724
116.9	79968
116.91	80390
116.92	79803
116.93	79673
116.94	80087
116.95	79885
116.96	80007
116.97	79487
116.98	79709
116.99	79830
117	79931
117.01	79102
117.02	79720
117.03	79235
117.04	79521
117.05	78888
117.06	79326
117.07	79646
117.08	79472
117.09	79277
117.1	78975
117.11	78973
117.12	79370
117.13	78866
117.14	79044
117.15	79253
117.16	78554
117.17	79246
117.18	78561
117.19	78886
117.2	78703
117.21	78157
117.22	78765
117.23	79447
117.24	78837
117.25	78457
117.26	78752
117.27	78740
117.28	78688
117.29	78408
117.3	79241
117.31	79049
117.32	79036
117.33	78447
117.34	78612
117.35	78909
117.36	78283
117.37	78807
117.38	78432
117.39	77857
117.4	78038
117.41	78656
117.42	78353
117.43	77684
117.44	78496
117.45	78142
117.46	78102
117.47	78635
117.48	78548
117.49	78184
117.5	78322
117.51	78374
117.52	77796
117.53	78360
117.54	78091
117.55	78576
117.56	78252
117.57	78615
117.58	78071
117.59	78375
117.6	78574
117.61	78302
117.62	78010
117.63	78206
117.64	78383
117.65	78487
117.66	78128
117.67	78448
117.68	78172
117.69	78682
117.7	78338
117.71	78653
117.72	79228
117.73	77747
117.74	78243
117.75	78382
117.76	78395
117.77	77771
117.78	78507
117.79	78336
117.8	78534
117.81	78179
117.82	78041
117.83	78500
117.84	78818
117.85	78278
117.86	78727
117.87	78190
117.88	78765
117.89	77576
117.9	78222
117.91	78609
117.92	78457
117.93	78998
117.94	77668
117.95	78659
117.96	78686
117.97	78674
117.98	78775
117.99	78893
118	78020
118.01	78151
118.02	78107
118.03	77751
118.04	78187
118.05	78251
118.06	78380
118.07	78248
118.08	78102
118.09	78398
118.1	78108
118.11	78191
118.12	78093
118.13	78855
118.14	78214
118.15	78697
118.16	78354
118.17	78761
118.18	78321
118.19	78643
118.2	78229
118.21	78522
118.22	78625
118.23	78224
118.24	77797
118.25	78347
118.26	78529
118.27	78525
118.28	78914
118.29	78665
118.3	78967
118.31	78240
118.32	78678
118.33	78602
118.34	78666
118.35	78445
118.36	78450
118.37	78485
118.38	78112
118.39	78082
118.4	78086
118.41	78506
118.42	78694
118.43	78592
118.44	78228
118.45	78722
118.46	78415
118.47	78100
118.48	78457
118.49	78172
118.5	79332
118.51	78300
118.52	78115
118.53	77876
118.54	78199
118.55	78443
118.56	78522
118.57	78309
118.58	78362
118.59	78637
118.6	78256
118.61	78984
118.62	78891
118.63	78774
118.64	78318
118.65	78726
118.66	78633
118.67	78524
118.68	78098
118.69	78550
118.7	78432
118.71	78573
118.72	78372
118.73	78417
118.74	78376
118.75	78741
118.76	78636
118.77	78487
118.78	78440
118.79	78523
118.8	78826
118.81	78908
118.82	78688
118.83	78648
118.84	78219
118.85	78525
118.86	78695
118.87	78654
118.88	78591
118.89	78691
118.9	78302
118.91	78837
118.92	78696
118.93	78503
118.94	78627
118.95	78373
118.96	78295
118.97	78423
118.98	78748
118.99	78125
119	78387
X-Ray	40kV/40mA
DivSlit	3.0mm
DivH.L.Slit	10mm
SctSlit	open
RecSlit	open
Start	114
Stop	119
Step	0.01
114	76156
114.01	76030
114.02	75964
114.03	76033
114.04	76379
114.05	76031
114.06	76125
114.07	76020
114.08	76099
114.09	76136
114.1	76249
114.11	76602
114.12	76278
114.13	76109
114.14	76545
114.15	76145
114.16	76738
114.17	75965
114.18	76127
114.19	76609
114.2	76303
114.21	76688
114.22	75651
114.23	75939
114.24	76471
114.25	75842
114.26	76498
114.27	76076
114.28	76211
114.29	76298
114.3	76215
114.31	76337
114.32	76389
114.33	76176
114.34	76332
114.35	76184
114.36	76596
114.37	76558
114.38	76599
114.39	76409
114.4	76585
114.41	76597
114.42	76717
114.43	76065
114.44	76481
114.45	76393
114.46	76031
114.47	76608
114.48	76194
114.49	76331
114.5	76593
114.51	75783
114.52	76214
114.53	76345
114.54	76738
114.55	76042
114.56	76150
114.57	77092
114.58	77178
114.59	76762
114.6	76388
114.61	76640
114.62	76437
114.63	76843
114.64	76587
114.65	77006
114.66	77147
114.67	76239
114.68	76165
114.69	76507
114.7	77355
114.71	76904
114.72	76364
114.73	76404
114.74	76592
114.75	76612
114.76	76429
114.77	76685
114.78	76124
114.79	76816
114.8	76267
114.81	76616
114.82	76269
114.83	76410
114.84	76145
114.85	76471
114.86	76703
114.87	76685
114.88	76799
114.89	76880
114.9	76593
114.91	76588
114.92	76839
114.93	76700
114.94	77464
114.95	76807
114.96	76751
114.97	76576
114.98	76797
114.99	76394
115	77036
115.01	76646
115.02	76972
115.03	76889
115.04	76289
115.05	76949
115.06	76245
115.07	76606
115.08	76542
115.09	76534
115.1	76823
115.11	76763
115.12	76510
115.13	76802
115.14	76938
115.15	77525
115.16	77109
115.17	77163
115.18	77325
115.19	77062
115.2	76839
115.21	77077
115.22	76656
115.23	76742
115.24	77146
115.25	77171
115.26	77293
115.27	77245
115.28	76922
115.29	76936
115.3	77232
115.31	76806
115.32	77493
115.33	77262
115.34	77698
115.35	77507
115.36	77745
115.37	77296
115.38	77270
115.39	77543
115.4	77095
115.41	77201
115.42	77558
115.43	77583
115.44	77510
115.45	77640
115.46	78062
115.47	78191
115.48	77751
115.49	78279
115.5	77907
115.51	77874
115.52	77647
115.53	77838
115.54	77919
115.55	78310
115.56	77477
115.57	78028
115.58	78485
115.59	78294
115.6	78014
115.61	78833
115.62	78169
115.63	78242
115.64	78502
115.65	77977
115.66	78302
115.67	79000
115.68	78862
115.69	78563
115.7	78625
115.71	78054
115.72	78744
115.73	78827
115.74	78813
115.75	78851
115.76	78982
115.77	79229
115.78	79121
115.79	79369
115.8	79141
115.81	79283
115.82	79359
115.83	79262
115.84	79345
115.85	79462
115.86	79823
115.87	80042
115.88	79975
115.89	79967
115.9	80077
115.91	80322
115.92	80140
115.93	80405
115.94	80418
115.95	80484
115.96	80369
115.97	80793
115.98	80722
115.99	81019
116	81434
116.01	81170
116.02	80799
116.03	81346
116.04	80864
116.05	81221
116.06	81438
116.07	80666
116.08	81220
116.09	81735
116.1	81552
116.11	81242
116.12	81711
116.13	81123
116.14	81935
116.15	81741
116.16	81330
116.17	82323
116.18	81735
116.19	81837
116.2	81928
116.21	82198
116.22	81792
116.23	81520
116.24	81582
116.25	81172
116.26	82152
116.27	82144
116.28	81820
116.29	81920
116.3	82162
116.31	82040
116.32	81774
116.33	81885
116.34	81896
116.35	82220
116.36	81990
116.37	81328
116.38	82093
116.39	81807
116.4	81886
116.41	81592
116.42	81250
116.43	81424
116.44	81241
116.45	81531
116.46	81600
116.47	81417
116.48	81434
116.49	81594
116.5	81005
116.51	81081
116.52	81329
116.53	81267
116.54	81016
116.55	80886
116.56	81139
116.57	81235
116.58	80518
116.59	80545
116.6	80588
116.61	80673
116.62	80361
116.63	80501
116.64	80587
116.65	80925
116.66	80652
116.67	80004
116.68	80279
116.69	80162
116.7	80086
116.71	80018
116.72	79796
116.73	80157
116.74	80226
116.75	80197
116.76	79809
116.77	80125
116.78	79715
116.79	80175
116.8	80153
116.81	79975
116.82	79524
116.83	79814
116.84	79324
116.85	79853
116.86	79422
116.87	79469
116.88	79123
116.89	79498
116.9	79428
116.91	78893
116.92	79205
116.93	79527
116.94	79014
116.95	79179
116.96	78691
116.97	79350
116.98	78534
116.99	78661
117	79025
117.01	78387
117.02	78521
117.03	78399
117.04	78877
117.05	79220
117.06	78672
117.07	78772
117.08	78709
117.09	78179
117.1	78149
117.11	78100
117.12	77449
117.13	78817
117.14	78026
117.15	78221
117.16	78390
117.17	78459
117.18	78122
117.19	78079
117.2	77921
117.21	78401
117.22	77967
117.23	78004
117.24	78096
117.25	77194
117.26	77972
117.27	77308
117.28	77601
117.29	77616
117.3	77605
117.31	78458
117.32	77716
117.33	78553
117.34	78301
117.35	77986
117.36	78147
117.37	78049
117.38	77689
117.39	77145
117.4	78130
117.41	77727
117.42	77751
117.43	77834
117.44	77889
117.45	77745
117.46	77773
117.47	77444
117.48	77850
117.49	77956
117.5	77604
117.51	77246
117.52	77812
117.53	77947
117.54	77784
117.55	77555
117.56	77712
117.57	77491
117.58	77837
117.59	77605
117.6	77487
117.61	77769
117.62	77053
117.63	77623
117.64	77414
117.65	77268
117.66	77819
117.67	77781
117.68	77489
117.69	77436
117.7	77677
117.71	77123
117.72	77613
117.73	77688
117.74	77197
117.75	77455
117.76	77756
117.77	77347
117.78	78140
117.79	77898
117.8	77818
117.81	77535
117.82	77406
117.83	77774
117.84	77058
117.85	77194
117.86	78007
117.87	77639
117.88	77108
117.89	77369
117.9	77247
117.91	77374
117.92	77528
117.93	77554
117.94	77439
117.95	77522
117.96	77211
117.97	77610
117.98	77003
117.99	77591
118	77460
118.01	77659
118.02	77941
118.03	77711
118.04	77984
118.05	77857
118.06	77862
118.07	77764
118.08	77932
118.09	78085
118.1	77731
118.11	77864
118.12	78087
118.13	77659
118.14	78395
118.15	77736
118.16	77120
118.17	77649
118.18	77635
118.19	77844
118.2	77296
118.21	77857
118.22	77170
118.23	77607
118.24	77152
118.25	77463
118.26	77497
118.27	77644
118.28	77796
118.29	77753
118.3	77469
118.31	76906
118.32	77832
118.33	77180
118.34	78092
118.35	77353
118.36	77259
118.37	77940
118.38	77987
118.39	77327
118.4	77696
118.41	77666
118.42	77535
118.43	77782
118.44	77737
118.45	77353
118.46	77610
118.47	77242
118.48	77966
118.49	77367
118.5	77795
118.51	77745
118.52	77466
118.53	78126
118.54	78094
118.55	77517
118.56	77609
118.57	78238
118.58	77652
118.59	78009
118.6	78046
118.61	78235
118.62	77780
118.63	78164
118.64	77925
118.65	77989
118.66	78540
118.67	77721
118.68	77612
118.69	78084
118.7	77669
118.71	77558
118.72	77284
118.73	77875
118.74	77364
118.75	77886
118.76	77747
118.77	77696
118.78	77606
118.79	77840
118.8	77569
118.81	77475
118.82	78158
118.83	77779
118.84	77897
118.85	77670
118.86	77790
118.87	78209
118.88	78118
118.89	77940
118.9	77921
118.91	77833
118.92	77903
118.93	78057
118.94	78744
118.95	77722
118.96	77970
118.97	77952
118.98	78128
118.99	77731
119	78105
X-Ray	40kV/40mA
DivSlit	3.0mm
DivH.L.Slit	10mm
SctSlit	open
RecSlit	open
Start	114
Stop	119
Step	0.01
114	74943
114.01	75486
114.02	75511
114.03	75536
114.04	75683
114.05	75544
114.06	75367
114.07	75236
114.08	75698
114.09	75840
114.1	75869
114.11	75884
114.12	75536
114.13	74759
114.14	75655
114.15	75611
114.16	75503
114.17	75860
114.18	75621
114.19	75643
114.2	75809
114.21	75522
114.22	75581
114.23	75783
114.24	75404
114.25	75494
114.26	75562
114.27	75617
114.28	75556
114.29	75682
114.3	75379
114.31	75984
114.32	75140
114.33	75702
114.34	75818
114.35	75628
114.36	75450
114.37	75986
114.38	75589
114.39	75946
114.4	75692
114.41	76045
114.42	75435
114.43	75850
114.44	75950
114.45	76132
114.46	76240
114.47	75356
114.48	76149
114.49	75948
114.5	75553
114.51	76303
114.52	75546
114.53	75748
114.54	75581
114.55	75549
114.56	75693
114.57	76320
114.58	75539
114.59	75499
114.6	75603
114.61	76158
114.62	76075
114.63	75854
114.64	75927
114.65	76057
114.66	75846
114.67	75492
114.68	75618
114.69	75753
114.7	76081
114.71	75866
114.72	75742
114.73	76095
114.74	75817
114.75	75511
114.76	75888
114.77	76362
114.78	75397
114.79	75781
114.8	76005
114.81	76018
114.82	75355
114.83	75828
114.84	75695
114.85	76098
114.86	76029
114.87	76157
114.88	75768
114.89	75588
114.9	75805
114.91	76703
114.92	76023
114.93	75878
114.94	75515
114.95	76084
114.96	76079
114.97	75520
114.98	76211
114.99	75819
115	75872
115.01	75822
115.02	75307
115.03	75737
115.04	76127
115.05	76216
115.06	76093
115.07	75898
115.08	75812
115.09	76548
115.1	75425
115.11	75998
115.12	76210
115.13	76527
115.14	75975
115.15	75851
115.16	76284
115.17	76232
115.18	76327
115.19	76293
115.2	76175
115.21	76376
115.22	76149
115.23	76371
115.24	76483
115.25	75477
115.26	76563
115.27	76277
115.28	76217
115.29	77224
115.3	76724
115.31	76862
115.32	76358
115.33	76744
115.34	76677
115.35	76819
115.36	76347
115.37	76899
115.38	76601
115.39	76734
115.4	76722
115.41	76532
115.42	76910
115.43	76816
115.44	77031
115.45	76848
115.46	76700
115.47	76810
115.48	76539
115.49	76730
115.5	77391
115.51	76713
115.52	77016
115.53	77577
115.54	77391
115.55	77059
115.56	77264
115.57	77678
115.58	77288
115.59	78003
115.6	77540
115.61	77613
115.62	77981
115.63	77897
115.64	77938
115.65	78012
115.66	77802
115.67	78251
115.68	78008
115.69	78058
115.7	77782
115.71	77972
115.72	78061
115.73	78095
115.74	78318
115.75	78612
115.76	78307
115.77	78728
115.78	78610
115.79	78481
115.8	78950
115.81	78477
115.82	78429
115.83	78889
115.84	78972
115.85	79404
115.86	78977
115.87	79562
115.88	79211
115.89	79594
115.9	79411
115.91	79669
115.92	79799
115.93	79993
115.94	80026
115.95	79945
115.96	80008
115.97	79684
115.98	80131
115.99	79317
116	80150
116.01	80056
116.02	80155
116.03	80522
116.04	79791
116.05	80787
116.06	80381
116.07	80606
116.08	80966
116.09	80534
116.1	80624
116.11	80459
116.12	80390
116.13	80733
116.14	80958
116.15	80561
116.16	81211
116.17	81064
116.18	80980
116.19	80677
116.2	81155
116.21	81148
116.22	81386
116.23	80385
116.24	80900
116.25	81230
116.26	81181
116.27	80985
116.28	81321
116.29	80974
116.3	81438
116.31	80898
116.32	80688
116.33	81129
116.34	81006
116.35	81283
116.36	81330
116.37	80915
116.38	81069
116.39	81016
116.4	81395
116.41	80670
116.42	80720
116.43	80938
116.44	80659
116.45	81175
116.46	80802
116.47	80721
116.48	80218
116.49	80643
116.5	80647
116.51	80320
116.52	80705
116.53	79904
116.54	80417
116.55	80510
116.56	80458
116.57	80121
116.58	80450
116.59	80273
116.6	80362
116.61	80244
116.62	79674
116.63	80218
116.64	79672
116.65	79890
116.66	79790
116.67	79485
116.68	79558
116.69	79215
116.7	79479
116.71	79624
116.72	79691
116.73	79193
116.74	79199
116.75	79441
116.76	78895
116.77	79469
116.78	79238
116.79	78936
116.8	78674
116.81	78478
116.82	78957
116.83	78902
116.84	78964
116.85	78878
116.86	78659
116.87	78149
116.88	78427
116.89	78266
116.9	78493
116.91	78661
116.92	78582
116.93	78430
116.94	78069
116.95	77649
116.96	78311
116.97	78476
116.98	77682
116.99	77742
117	78075
117.01	77933
117.02	78017
117.03	77946
117.04	77760
117.05	77497
117.06	77524
117.07	77683
117.08	77828
117.09	77402
117.1	77168
117.11	77289
117.12	77692
117.13	77202
117.14	77337
117.15	77791
117.16	77184
117.17	77688
117.18	77243
117.19	77221
117.2	77169
117.21	77586
117.22	77171
117.23	77393
117.24	77068
117.25	77137
117.26	77270
117.27	76871
117.28	77133
117.29	77198
117.3	76592
117.31	76988
117.32	76619
117.33	76633
117.34	77009
117.35	77019
117.36	77245
117.37	76798
117.38	77516
117.39	77342
117.4	77061
117.41	76737
117.42	77104
117.43	76885
117.44	77048
117.45	76853
117.46	77140
117.47	77240
117.48	76923
117.49	76845
117.5	77207
117.51	77185
117.52	77063
117.53	76430
117.54	76914
117.55	76549
117.56	77375
117.57	76353
117.58	76770
117.59	76577
117.6	77030
117.61	76826
117.62	76829
117.63	76138
117.64	76895
117.65	77286
117.66	76941
117.67	77440
117.68	76769
117.69	77099
117.7	76780
117.71	76930
117.72	76955
117.73	76829
117.74	76861
117.75	77280
117.76	76789
117.77	77017
117.78	77010
117.79	76770
117.8	76932
117.81	76790
117.82	76507
117.83	76777
117.84	76918
117.85	77166
117.86	76977
117.87	77062
117.88	77022
117.89	76874
117.9	77027
117.91	76752
117.92	76812
117.93	77125
117.94	76539
117.95	76650
117.96	77419
117.97	76894
117.98	77030
117.99	76799
118	77375
118.01	76718
118.02	76767
118.03	76932
118.04	76883
118.05	76695
118.06	77072
118.07	77015
118.08	76963
118.09	77034
118.1	77137
118.11	76993
118.12	76993
118.13	77306
118.14	76858
118.15	76500
118.16	76755
118.17	76773
118.18	76847
118.19	76855
118.2	77094
118.21	76827
118.22	76918
118.23	76805
118.24	76901
118.25	76763
118.26	76874
118.27	77214
118.28	76998
118.29	77251
118.3	76923
118.31	76938
118.32	77266
118.33	76717
118.34	76817
118.35	77025
118.36	77404
118.37	76917
118.38	77407
118.39	76877
118.4	76826
118.41	76981
118.42	77247
118.43	77108
118.44	77127
118.45	77070
118.46	77053
118.47	77095
118.48	77561
118.49	77053
118.5	76929
118.51	76905
118.52	76788
118.53	77151
118.54	76937
118.55	77320
118.56	77249
118.57	77134
118.58	77247
118.59	77322
118.6	77721
118.61	77088
118.62	76689
118.63	76290
118.64	77600
118.65	77442
118.66	76496
118.67	77280
118.68	77068
118.69	76822
118.7	77136
118.71	77129
118.72	77469
118.73	77493
118.74	76926
118.75	77027
118.76	76713
118.77	77076
118.78	77256
118.79	76989
118.8	77222
118.81	77143
118.82	76710
118.83	76937
118.84	77096
118.85	77453
118.86	77357
118.87	76719
118.88	76962
118.89	77515
118.9	77314
118.91	77249
118.92	77156
118.93	77503
118.94	77348
118.95	76787
118.96	77859
118.97	76706
118.98	77177
118.99	77298
119	77334
X-Ray	40kV/40mA
DivSlit	3.0mm
DivH.L.Slit	10mm
SctSlit	open
RecSlit	open
Start	114
Stop	119
Step	0.01
114	74741
114.01	74730
114.02	74490
114.03	74682
114.04	74327
114.05	75126
114.06	74761
114.07	75130
114.08	75241
114.09	74437
114.1	74855
114.11	74464
114.12	74147
114.13	74794
114.14	75079
114.15	74316
114.16	74502
114.17	74605
114.18	74750
114.19	74691
114.2	74797
114.21	74663
114.22	74893
114.23	75121
114.24	74438
114.25	74665
114.26	74696
114.27	74785
114.28	75014
114.29	74657
114.3	74715
114.31	74389
114.32	74642
114.33	74597
114.34	74334
114.35	74882
114.36	74829
114.37	74793
114.38	74956
114.39	74807
114.4	74784
114.41	75227
114.42	74428
114.43	74613
114.44	75144
114.45	74940
114.46	75039
114.47	75307
114.48	74928
114.49	74538
114.5	74973
114.51	75270
114.52	74894
114.53	75237
114.54	74421
114.55	74873
114.56	75376
114.57	75174
114.58	75404
114.59	75206
114.6	75083
114.61	74775
114.62	75018
114.63	75185
114.64	75105
114.65	74948
114.66	75543
114.67	75347
114.68	74961
114.69	75092
114.7	75163
114.71	75248
114.72	75108
114.73	74798
114.74	75220
114.75	74473
114.76	74774
114.77	74861
114.78	75382
114.79	75013
114.8	75311
114.81	74969
114.82	75164
114.83	75648
114.84	75956
114.85	75668
114.86	75317
114.87	74769
114.88	75223
114.89	75302
114.9	75227
114.91	74704
114.92	74627
114.93	75486
114.94	75157
114.95	74951
114.96	75182
114.97	75502
114.98	75186
114.99	75325
115	75388
115.01	75559
115.02	75677
115.03	75429
115.04	75410
115.05	75063
115.06	75091
115.07	75525
115.08	75466
115.09	75587
115.1	75316
115.11	75500
115.12	75461
115.13	76166
115.14	75446
115.15	74553
115.16	75578
115.17	75566
115.18	75210
115.19	75765
115.2	75449
115.21	75728
115.22	75729
115.23	75775
115.24	75728
115.25	75101
115.26	76055
115.27	76211
115.28	75572
115.29	75207
115.3	76195
115.31	75426
115.32	75915
115.33	75295
115.34	75832
115.35	75995
115.36	76065
115.37	76437
115.38	76430
115.39	75839
115.4	75978
115.41	75778
115.42	76164
115.43	76071
115.44	76354
115.45	75927
115.46	76471
115.47	76407
115.48	76243
115.49	76220
115.5	76253
115.51	76345
115.52	76278
115.53	76028
115.54	76399
115.55	76503
115.56	76543
115.57	76304
115.58	76761
115.59	76740
115.6	76559
115.61	76369
115.62	76810
115.63	76492
115.64	76827
115.65	76791
115.66	77025
115.67	76733
115.68	76678
115.69	77102
115.7	77421
115.71	77088
115.72	77730
115.73	77820
115.74	77455
115.75	77626
115.76	77776
115.77	77959
115.78	77727
115.79	77588
115.8	78575
115.81	77500
115.82	77974
115.83	78096
115.84	78584
115.85	78240
115.86	78052
115.87	78244
115.88	78201
115.89	78865
115.9	78278
115.91	78522
115.92	78689
115.93	78733
115.94	79274
115.95	79156
115.96	79175
115.97	78669
115.98	78305
115.99	78900
116	79643
116.01	79542
116.02	78784
116.03	79566
116.04	79253
116.05	79881
116.06	80138
116.07	79578
116.08	79235
116.09	80047
116.1	79393
116.11	80024
116.12	79761
116.13	79875
116.14	80085
116.15	80097
116.16	79640
116.17	79905
116.18	80579
116.19	80789
116.2	80372
116.21	79810
116.22	80406
116.23	80076
116.24	79633
116.25	80613
116.26	80116
116.27	80607
116.28	80105
116.29	79862
116.3	80404
116.31	80291
116.32	80017
116.33	80782
116.34	79930
116.35	80238
116.36	80619
116.37	80522
116.38	80163
116.39	80365
116.4	80665
116.41	80117
116.42	80316
116.43	80023
116.44	80293
116.45	80116
116.46	80036
116.47	79556
116.48	80307
116.49	80126
116.5	79962
116.51	79903
116.52	79909
116.53	79302
116.54	79441
116.55	79914
116.56	79468
116.57	79364
116.58	79188
116.59	79639
116.6	79480
116.61	79253
116.62	79301
116.63	79509
116.64	79043
116.65	79458
116.66	79386
116.67	78635
116.68	78679
116.69	78609
116.7	78986
116.71	78722
116.72	79294
116.73	78731
116.74	78197
116.75	78344
116.76	78798
116.77	78408
116.78	78748
116.79	77934
116.8	78076
116.81	78544
116.82	78888
116.83	77984
116.84	78201
116.85	78125
116.86	78234
116.87	77956
116.88	77706
116.89	78258
116.9	78032
116.91	77853
116.92	76734
116.93	78022
116.94	77662
116.95	78298
116.96	77487
116.97	76992
116.98	77221
116.99	77329
117	77036
117.01	77362
117.02	77216
117.03	77297
117.04	77503
117.05	77553
117.06	77236
117.07	76643
117.08	76799
117.09	77180
117.1	76998
117.11	76801
117.12	76864
117.13	76710
117.14	77347
117.15	76649
117.16	76978
117.17	76943
117.18	77190
117.19	77390
117.2	76544
117.21	77393
117.22	76257
117.23	76755
117.24	76191
117.25	76701
117.26	76851
117.27	76127
117.28	76500
117.29	76725
117.3	76710
117.31	76424
117.32	76454
117.33	76948
117.34	76664
117.35	76880
117.36	76744
117.37	76687
117.38	76148
117.39	76160
117.4	76325
117.41	76265
117.42	76676
117.43	76158
117.44	76446
117.45	76481
117.46	76688
117.47	76745
117.48	76258
117.49	76564
117.5	76268
117.51	76828
117.52	76193
117.53	76028
117.54	75839
117.55	76602
117.56	76229
117.57	76417
117.58	76115
117.59	76311
117.6	76294
117.61	76111
117.62	75885
117.63	76704
117.64	76307
117.65	76136
117.66	76542
117.67	76557
117.68	76271
117.69	76081
117.7	76050
117.71	75935
117.72	75971
117.73	76184
117.74	75857
117.75	75825
117.76	76174
117.77	76450
117.78	76316
117.79	76262
117.8	76416
117.81	76298
117.82	75773
117.83	76379
117.84	76349
117.85	76690
117.86	76342
117.87	75840
117.88	76401
117.89	76224
117.9	76192
117.91	76178
117.92	76177
117.93	76786
117.94	76362
117.95	76287
117.96	76557
117.97	76198
117.98	76485
117.99	76156
118	76343
118.01	76624
118.02	76247
118.03	76603
118.04	76312
118.05	76514
118.06	76549
118.07	76103
118.08	76177
118.09	76095
118.1	76476
118.11	76437
118.12	76833
118.13	76539
118.14	75917
118.15	76450
118.16	75911
118.17	76233
118.18	76156
118.19	76446
118.2	76334
118.21	76219
118.22	76989
118.23	76858
118.24	76681
118.25	76008
118.26	75970
118.27	76381
118.28	76260
118.29	76463
118.3	76474
118.31	76315
118.32	76900
118.33	75898
118.34	76154
118.35	76661
118.36	76885
118.37	76523
118.38	76734
118.39	76884
118.4	76117
118.41	76985
118.42	76775
118.43	77391
118.44	76503
118.45	76243
118.46	76287
118.47	76258
118.48	76481
118.49	76986
118.5	76209
118.51	76614
118.52	76795
118.53	76142
118.54	76847
118.55	76476
118.56	76573
118.57	76662
118.58	76705
118.59	76588
118.6	76411
118.61	76613
118.62	76529
118.63	76269
118.64	76638
118.65	76353
118.66	76323
118.67	76852
118.68	76517
118.69	76955
118.7	76445
118.71	76582
118.72	76576
118.73	76778
118.74	76623
118.75	76700
118.76	76312
118.77	76368
118.78	77042
118.79	76690
118.8	76282
118.81	76311
118.82	76576
118.83	76153
118.84	76134
118.85	77138
118.86	76841
118.87	76145
118.88	76326
118.89	76372
118.9	76033
118.91	76676
118.92	76973
118.93	76558
118.94	76475
118.95	76788
118.96	76182
118.97	76516
118.98	76444
118.99	76683
119	76561
X-Ray	40kV/40mA
DivSlit	3.0mm
DivH.L.Slit	10mm
SctSlit	open
RecSlit	open
Start	114
Stop	119
Step	0.01
114	73878
114.01	73973
114.02	73395
114.03	73506
114.04	74448
114.05	73826
114.06	74152
114.07	74168
114.08	73428
114.09	73956
114.1	73866
114.11	73674
114.12	73344
114.13	73912
114.14	73731
114.15	73984
114.16	74308
114.17	74135
114.18	74092
114.19	73724
114.2	74760
114.21	74141
114.22	74214
114.23	74523
114.24	73482
114.25	73892
114.26	74404
114.27	73935
114.28	74186
114.29	73910
114.3	74097
114.31	73995
114.32	73994
114.33	73526
114.34	73940
114.35	74177
114.36	74150
114.37	74563
114.38	73619
114.39	74240
114.4	74070
114.41	74180
114.42	74141
114.43	74089
114.44	74196
114.45	74031
114.46	74558
114.47	74044
114.48	74552
114.49	73888
114.5	74431
114.51	74155
114.52	73717
114.53	74287
114.54	73938
114.55	74420
114.56	73719
114.57	74260
114.58	73898
114.59	73867
114.6	74152
114.61	74176
114.62	74451
114.63	74515
114.64	73892
114.65	74182
114.66	74774
114.67	74343
114.68	74095
114.69	73987
114.7	74171
114.71	74627
114.72	74170
114.73	74439
114.74	74753
114.75	74509
114.76	74667
114.77	74283
114.78	74530
114.79	74434
114.8	74485
114.81	74140
114.82	75009
114.83	74180
114.84	74367
114.85	74310
114.86	74662
114.87	75128
114.88	74653
114.89	75325
114.9	74135
114.91	74723
114.92	74428
114.93	74519
114.94	74161
114.95	74663
114.96	74474
114.97	74411
114.98	74404
114.99	74278
115	74240
115.01	74602
115.02	74560
115.03	74663
115.04	75301
115.05	74419
115.06	74686
115.07	74597
115.08	74860
115.09	74670
115.1	74826
115.11	74495
115.12	74690
115.13	74543
115.14	74829
115.15	74155
115.16	75234
115.17	74804
115.18	75069
115.19	74858
115.2	74520
115.21	75108
115.22	75161
115.23	74815
115.24	74989
115.25	74299
115.26	75115
115.27	75093
115.28	74985
115.29	74719
115.3	74792
115.31	74825
115.32	75463
115.33	74291
115.34	75374
115.35	75680
115.36	75388
115.37	75277
115.38	75273
115.39	75264
115.4	75185
115.41	75420
115.42	75486
115.43	75090
115.44	75085
115.45	75733
115.46	75248
115.47	75257
115.48	76083
115.49	75688
115.5	75956
115.51	75974
115.52	75748
115.53	75803
115.54	75749
115.55	75813
115.56	75486
115.57	76025
115.58	75993
115.59	75659
115.6	76050
115.61	76180
115.62	76317
115.63	76214
115.64	75783
115.65	76027
115.66	76321
115.67	76404
115.68	76851
115.69	76764
115.7	77100
115.71	76381
115.72	76640
115.73	76930
115.74	77090
115.75	77375
115.76	77183
115.77	77177
115.78	76709
115.79	77564
115.8	77652
115.81	77551
115.82	77025
115.83	77797
115.84	76687
115.85	77731
115.86	77757
115.87	77649
115.88	77784
115.89	77756
115.9	77844
115.91	78067
115.92	78318
115.93	78641
115.94	78868
115.95	78590
115.96	78273
115.97	79023
115.98	78062
115.99	78631
116	78739
116.01	78592
116.02	79038
116.03	78617
116.04	79315
116.05	78568
116.06	79236
116.07	78631
116.08	79047
116.09	78881
116.1	78854
116.11	78978
116.12	79175
116.13	79125
116.14	78927
116.15	79162
116.16	79425
116.17	79434
116.18	79273
116.19	79219
116.2	79599
116.21	79755
116.22	79382
116.23	79560
116.24	79590
116.25	79915
116.26	79703
116.27	79470
116.28	79658
116.29	79433
116.3	79848
116.31	79468
116.32	79956
116.33	79808
116.34	79530
116.35	79915
116.36	79838
116.37	79116
116.38	79657
116.39	79349
116.4	79404
116.41	79526
116.42	78936
116.43	79527
116.44	79296
116.45	79064
116.46	79257
116.47	79455
116.48	79019
116.49	79359
116.5	79227
116.51	78745
116.52	78921
116.53	79137
116.54	78864
116.55	78909
116.56	78459
116.57	78710
116.58	78712
116.59	78144
116.6	78751
116.61	78467
116.62	78659
116.63	78329
116.64	79001
116.65	78552
116.66	78676
116.67	78205
116.68	78533
116.69	78390
116.7	78729
116.71	78373
116.72	77950
116.73	78103
116.74	77300
116.75	78150
116.76	77896
116.77	77812
116.78	77569
116.79	77428
116.8	77497
116.81	77543
116.82	77658
116.83	77441
116.84	77673
116.85	76958
116.86	77803
116.87	76946
116.88	77282
116.89	77240
116.9	77231
116.91	76909
116.92	76821
116.93	76711
116.94	77264
116.95	77319
116.96	77153
116.97	76435
116.98	77025
116.99	76247
117	76502
117.01	76485
117.02	76374
117.03	76544
117.04	76556
117.05	76168
117.06	76366
117.07	76033
117.08	76270
117.09	76597
117.1	76267
117.11	76543
117.12	76145
117.13	75978
117.14	76187
117.15	76197
117.16	76376
117.17	76288
117.18	75690
117.19	76367
117.2	76359
117.21	76276
117.22	76197
117.23	75970
117.24	75801
117.25	75426
117.26	76006
117.27	75411
117.28	75772
117.29	75873
117.3	76115
117.31	75880
117.32	75880
117.33	75764
117.34	75919
117.35	75792
117.36	75967
117.37	75816
117.38	76089
117.39	76116
117.4	76062
117.41	75249
117.42	75522
117.43	75798
117.44	75910
117.45	75728
117.46	75841
117.47	75614
117.48	75346
117.49	75664
117.5	75624
117.51	75782
117.52	75584
117.53	75996
117.54	75830
117.55	75845
117.56	76004
117.57	75721
117.58	75873
117.59	75670
117.6	75406
117.61	74959
117.62	75600
117.63	75664
117.64	75815
117.65	75771
117.66	75235
117.67	75426
117.68	75721
117.69	75591
117.7	75524
117.71	75278
117.72	75421
117.73	75550
117.74	75686
117.75	75703
117.76	76107
117.77	75667
117.78	76029
117.79	75291
117.8	75693
117.81	75963
117.82	75507
117.83	76009
117.84	75340
117.85	75222
117.86	75783
117.87	75642
117.88	75851
117.89	75908
117.9	75156
117.91	75618
117.92	75662
117.93	75532
117.94	76318
117.95	75367
117.96	75658
117.97	76273
117.98	75781
117.99	75800
118	75537
118.01	75519
118.02	76027
118.03	75494
118.04	75672
118.05	75660
118.06	75694
118.07	75571
118.08	75668
118.09	75662
118.1	75467
118.11	75942
118.12	75400
118.13	75971
118.14	76084
118.15	76104
118.16	75739
118.17	75807
118.18	75318
118.19	75905
118.2	76005
118.21	75528
118.22	76051
118.23	75796
118.24	76092
118.25	75245
118.26	75697
118.27	75611
118.28	76059
118.29	76127
118.3	75733
118.31	75623
118.32	75708
118.33	75955
118.34	75908
118.35	76021
118.36	75322
118.37	75630
118.38	75829
118.39	75751
118.4	75834
118.41	76197
118.42	75654
118.43	75495
118.44	75400
118.45	75754
118.46	75983
118.47	76042
118.48	75934
118.49	75899
118.5	76157
118.51	75720
118.52	75503
118.53	75625
118.54	75986
118.55	76139
118.56	75733
118.57	75401
118.58	75827
118.59	76040
118.6	76369
118.61	75790
118.62	75500
118.63	75777
118.64	75655
118.65	76305
118.66	75892
118.67	75713
118.68	75882
118.69	76052
118.7	75727
118.71	76491
118.72	76366
118.73	76265
118.74	75704
118.75	75876
118.76	75711
118.77	75962
118.78	76171
118.79	75396
118.8	75757
118.81	75972
118.82	76339
118.83	75707
118.84	76044
118.85	76140
118.86	75963
118.87	76034
118.88	75829
118.89	75835
118.9	76117
118.91	76208
118.92	75845
118.93	76148
118.94	75491
118.95	75744
118.96	76461
118.97	75968
118.98	76067
118.99	75429
119	75386
X-Ray	40kV/40mA
DivSlit	3.0mm
DivH.L.Slit	10mm
SctSlit	open
RecSlit	open
Start	114
Stop	119
Step	0.01
114	73223
114.01	73616
114.02	73499
114.03	73412
114.04	72975
114.05	73033
114.06	73436
114.07	72968
114.08	73322
114.09	72993
114.1	73716
114.11	72720
114.12	73351
114.13	73052
114.14	73332
114.15	73069
114.16	73553
114.17	72952
114.18	73456
114.19	72991
114.2	73035
114.21	73286
114.22	73238
114.23	73546
114.24	73443
114.25	73798
114.26	73365
114.27	73000
114.28	73485
114.29	73469
114.3	73545
114.31	73429
114.32	73345
114.33	73738
114.34	73601
114.35	73239
114.36	73502
114.37	72964
114.38	73187
114.39	73618
114.4	73414
114.41	73334
114.42	73878
114.43	73302
114.44	73394
114.45	72829
114.46	73482
114.47	73326
114.48	73866
114.49	73620
114.5	73775
114.51	73280
114.52	73606
114.53	73404
114.54	73401
114.55	73666
114.56	73540
114.57	73477
114.58	73875
114.59	73610
114.6	73066
114.61	73460
114.62	72856
114.63	73580
114.64	73585
114.65	73867
114.66	73285
114.67	73420
114.68	73511
114.69	73995
114.7	73512
114.71	73645
114.72	74147
114.73	73769
114.74	73672
114.75	74041
114.76	73661
114.77	74229
114.78	73794
114.79	73812
114.8	73865
114.81	73915
114.82	73851
114.83	73748
114.84	73747
114.85	74007
114.86	74312
114.87	73824
114.88	74158
114.89	73984
114.9	73997
114.91	74024
114.92	73850
114.93	73984
114.94	74424
114.95	74205
114.96	74380
114.97	74085
114.98	73690
114.99	73315
115	74394
115.01	74412
115.02	73811
115.03	73551
115.04	73779
115.05	73558
115.06	74081
115.07	74375
115.08	74497
115.09	74060
115.1	73914
115.11	73557
115.12	73870
115.13	74167
115.14	73665
115.15	74366
115.16	73945
115.17	74069
115.18	74361
115.19	73701
115.2	74363
115.21	74471
115.22	74641
115.23	74141
115.24	74073
115.25	73898
115.26	74212
115.27	74071
115.28	74206
115.29	74155
115.3	74783
115.31	74459
115.32	74378
115.33	74525
115.34	74838
115.35	74921
115.36	74589
115.37	75092
115.38	74231
115.39	74025
115.4	74916
115.41	74409
115.42	74826
115.43	74934
115.44	74831
115.45	74750
115.46	74820
115.47	74610
115.48	75031
115.49	75088
115.5	75290
115.51	75273
115.52	75233
115.53	74877
115.54	75186
115.55	75338
115.56	74895
115.57	75493
115.58	75301
115.59	75162
115.6	75451
115.61	75465
115.62	75447
115.63	75336
115.64	75739
115.65	75825
115.66	75710
115.67	75900
115.68	75710
115.69	75996
115.7	76309
115.71	76234
115.72	76086
115.73	76385
115.74	76065
115.75	76231
115.76	75756
115.77	76430
115.78	75866
115.79	76507
115.8	76487
115.81	76767
115.82	76331
115.83	77506
115.84	76849
115.85	77115
115.86	76713
115.87	76425
115.88	76468
115.89	77056
115.9	77566
115.91	77397
115.92	77458
115.93	77308
115.94	77188
115.95	78052
115.96	77548
115.97	77784
115.98	77929
115.99	77803
116	78044
116.01	77781
116.02	78620
116.03	78221
116.04	78419
116.05	78095
116.06	78331
116.07	78730
116.08	78520
116.09	78303
116.1	78054
116.11	78841
116.12	78613
116.13	78914
116.14	78803
116.15	78481
116.16	78619
116.17	78576
116.18	78612
116.19	78847
116.2	78757
116.21	78344
116.22	78605
116.23	78908
116.24	79004
116.25	78920
116.26	78862
116.27	78678
116.28	78824
116.29	78862
116.3	78926
116.31	79235
116.32	78873
116.33	79133
116.34	79506
116.35	78672
116.36	78651
116.37	78781
116.38	78835
116.39	79088
116.4	78638
116.41	78490
116.42	78123
116.43	78788
116.44	78516
116.45	78340
116.46	78805
116.47	79042
116.48	78498
116.49	78694
116.5	78292
116.51	78371
116.52	78104
116.53	78669
116.54	78233
116.55	77942
116.56	78631
116.57	78092
116.58	78006
116.59	78096
116.6	78065
116.61	77771
116.62	78259
116.63	77549
116.64	77759
116.65	78195
116.66	77269
116.67	77452
116.68	77394
116.69	77673
116.7	76934
116.71	77510
116.72	77104
116.73	76944
116.74	77503
116.75	77494
116.76	77570
116.77	77713
116.78	76473
116.79	76707
116.8	77002
116.81	76776
116.82	77038
116.83	76660
116.84	76694
116.85	77096
116.86	76437
116.87	76568
116.88	75939
116.89	76513
116.9	76681
116.91	76504
116.92	76385
116.93	76016
116.94	76237
116.95	76192
116.96	76389
116.97	76458
116.98	76321
116.99	76208
117	76192
117.01	75980
117.02	76147
117.03	75939
117.04	76192
117.05	75929
117.06	75324
117.07	75414
117.08	75094
117.09	76021
117.1	75459
117.11	75969
117.12	75309
117.13	75194
117.14	75479
117.15	74922
117.16	75003
117.17	75092
117.18	75934
117.19	74963
117.2	75359
117.21	75005
117.22	74957
117.23	75567
117.24	75276
117.25	75241
117.26	75646
117.27	75382
117.28	75674
117.29	74940
117.3	75023
117.31	75600
117.32	75332
117.33	75349
117.34	74959
117.35	75341
117.36	75003
117.37	74778
117.38	75308
117.39	75304
117.4	75088
117.41	75262
117.42	75034
117.43	75022
117.44	74958
117.45	74733
117.46	74844
117.47	75114
117.48	75149
117.49	75338
117.5	75061
117.51	75210
117.52	75340
117.53	75041
117.54	75326
117.55	74966
117.56	74679
117.57	74415
117.58	74995
117.59	75145
117.6	74764
117.61	74583
117.62	74554
117.63	75056
117.64	75234
117.65	75109
117.66	75209
117.67	74894
117.68	74880
117.69	75246
117.7	75179
117.71	74943
117.72	74967
117.73	75129
117.74	74890
117.75	75168
117.76	75003
117.77	75007
117.78	74690
117.79	74975
117.8	74789
117.81	74705
117.82	75511
117.83	75116
117.84	74662
117.85	75047
117.86	74638
117.87	75030
117.88	74893
117.89	75131
117.9	75060
117.91	75209
117.92	75353
117.93	75276
117.94	75182
117.95	75647
117.96	75258
117.97	75285
117.98	75022
117.99	74903
118	74762
118.01	74801
118.02	74976
118.03	74998
118.04	75216
118.05	74638
118.06	75268
118.07	75028
118.08	75045
118.09	75091
118.1	75156
118.11	75540
118.12	75370
118.13	75171
118.14	75068
118.15	74931
118.16	75372
118.17	75049
118.18	75717
118.19	75246
118.2	74718
118.21	75057
118.22	75743
118.23	74872
118.24	75305
118.25	74714
118.26	75047
118.27	75460
118.28	74978
118.29	75354
118.3	74973
118.31	74915
118.32	75295
118.33	75121
118.34	75348
118.35	75391
118.36	74693
118.37	74801
118.38	76010
118.39	74924
118.4	75078
118.41	75017
118.42	75181
118.43	75264
118.44	74727
118.45	75507
118.46	75594
118.47	75896
118.48	75563
118.49	74641
118.5	75673
118.51	75755
118.52	74760
118.53	75617
118.54	75414
118.55	75270
118.56	75628
118.57	75082
118.58	75359
118.59	74805
118.6	75943
118.61	74893
118.62	74532
118.63	75927
118.64	75651
118.65	75037
118.66	74759
118.67	75388
118.68	75332
118.69	75476
118.7	75083
118.71	74897
118.72	75327
118.73	75469
118.74	75342
118.75	75330
118.76	75613
118.77	75228
118.78	75661
118.79	75353
118.8	75521
118.81	75462
118.82	75586
118.83	75141
118.84	75245
118.85	75540
118.86	75098
118.87	75763
118.88	75416
118.89	74863
118.9	75044
118.91	75287
118.92	75141
118.93	75916
118.94	75254
118.95	75762
118.96	75322
118.97	75816
118.98	75162
118.99	75353
119	75597
